time (s)	magX	magY	magZ
3183.088128	-124.547050	-4.091175	-1530.742310
3183.091476	-108.942139	-10.461719	-1536.002319
3183.094803	-93.921684	-15.955583	-1538.690796
3183.098203	-79.135010	-21.683226	-1543.132690
3183.101479	-63.646992	-28.053770	-1544.652222
3183.104818	-48.275860	-33.722969	-1546.931641
3183.108189	-32.612507	-39.684395	-1549.912354
3183.111884	-17.358271	-46.171829	-1550.672119
3183.115218	-1.110462	-51.724136	-1552.133301
3183.118555	14.728229	-57.977791	-1551.548828
3183.121925	30.976036	-64.056107	-1552.191772
3183.125232	46.990063	-70.718880	-1552.133301
3183.128634	62.653416	-76.855644	-1549.795410
3183.131961	79.310349	-82.349503	-1547.048462
3183.135289	95.090591	-88.544708	-1543.892456
3183.138547	111.396851	-95.149033	-1543.366455
3183.141924	127.235535	-100.818237	-1537.521973
3183.145671	143.191116	-107.130341	-1534.249023
3183.149060	158.912918	-112.741089	-1530.099365
3183.152379	174.517822	-118.702522	-1526.358887
3183.155716	190.064285	-125.131500	-1518.468750
3183.159081	206.136749	-130.099350	-1513.325439
3183.162400	220.981888	-136.002335	-1505.084717
3183.165724	236.353012	-141.262421	-1496.960815
3183.169091	249.912338	-146.990067	-1490.005859
3183.172392	264.406769	-151.724136	-1480.420776
3183.175779	278.433655	-156.633545	-1471.654053
3183.179077	291.466980	-161.075394	-1460.900024
3183.182424	304.324951	-165.225021	-1450.730591
3183.185784	316.715363	-169.491531	-1442.197510
3183.189162	329.164246	-174.050262	-1431.619019
3183.192911	340.268860	-177.147858	-1419.696045
3183.196228	351.139679	-180.654587	-1409.234375
3183.199561	362.828766	-183.869095	-1397.194580
3183.202912	373.173584	-187.200470	-1386.382202
3183.206208	382.875519	-189.830505	-1375.160645
3183.209546	392.577423	-192.928116	-1362.828735
3183.212858	401.168915	-195.032150	-1352.133301
3183.216180	409.760376	-197.194626	-1338.573975
3183.219539	418.176514	-199.532440	-1328.521362
3183.223329	427.001770	-201.870255	-1315.955566
3183.226267	434.190521	-203.565170	-1303.857422
3183.230041	441.905304	-205.435425	-1290.531860
3183.233376	449.561646	-207.071869	-1277.557007
3183.236665	455.639984	-208.825256	-1265.984863
3183.240003	462.887207	-210.520172	-1253.068359
3183.243384	468.790192	-212.390427	-1240.736328
3183.246699	474.985413	-213.442413	-1225.832886
3183.250013	481.881958	-215.254242	-1213.968506
3183.253314	487.901825	-216.423157	-1201.227417
3183.257112	494.681458	-218.118042	-1187.025146
3183.260431	499.883118	-218.585632	-1174.634766
3183.263753	504.792511	-220.397430	-1159.029785
3183.267104	509.701904	-221.858566	-1146.054932
3183.270411	515.195801	-223.202805	-1132.671021
3183.273725	519.579163	-224.137924	-1117.358276
3183.277031	523.787231	-225.131516	-1103.389893
3183.280372	527.878418	-226.300400	-1090.356567
3183.283711	532.670959	-227.410858	-1074.517822
3183.287454	536.762146	-228.053757	-1060.666260
3183.291021	540.853333	-228.872009	-1046.171875
3183.294347	543.366455	-229.222687	-1030.859131
3183.297682	546.113403	-230.391571	-1017.592041
3183.301015	549.386292	-230.625366	-1002.688477
3183.304388	552.016357	-230.976028	-989.362915
3183.307685	554.354187	-231.911163	-976.037415
3183.311016	556.165955	-231.443604	-962.185852
3183.314348	557.802429	-231.794266	-948.100586
3183.317685	559.380493	-231.852722	-936.294556
3183.321009	561.309204	-232.028061	-923.670410
3183.324351	562.419678	-232.261826	-911.805908
3183.327684	563.939209	-232.729385	-899.883057
3183.331013	563.880798	-231.911163	-888.661560
3183.334343	564.582092	-231.560486	-877.147888
3183.338123	566.569275	-231.209824	-867.387512
3183.341459	566.101685	-230.742264	-855.698364
3183.344775	566.101685	-230.391571	-846.814697
3183.348135	566.452332	-229.807144	-836.002319
3183.351436	566.510803	-229.456451	-825.715942
3183.354774	566.160156	-229.105789	-816.247864
3183.358103	566.803040	-228.170654	-806.896606
3183.361435	567.095276	-227.586197	-798.480408
3183.364762	566.452332	-226.417297	-789.362976
3183.368102	566.335510	-226.417297	-780.187012
3183.371930	566.335510	-225.482178	-771.186462
3183.375279	566.452332	-224.722382	-763.179443
3183.378581	565.867920	-223.845703	-754.354187
3183.381857	565.108093	-223.436600	-747.106934
3183.385184	565.108093	-222.852142	-738.106384
3183.388569	563.705444	-221.741669	-730.040955
3183.391902	563.004089	-221.157211	-721.449402
3183.395265	563.705444	-220.806549	-714.377563
3183.398601	562.185852	-220.105194	-705.084778
3183.401935	562.127380	-219.871429	-696.025696
3183.405613	561.133850	-218.819397	-688.077148
3183.409008	560.490967	-218.234940	-680.596191
3183.412322	559.848022	-218.293411	-672.706055
3183.415731	558.912903	-217.182922	-664.289917
3183.419059	558.328491	-217.533615	-655.990662
3183.422408	557.510254	-216.130920	-649.035645
3183.425730	556.575134	-215.371124	-641.203979
3183.429054	555.406189	-214.260681	-632.963196
3183.432405	554.588013	-213.968445	-626.241943
3183.435749	553.652832	-213.851547	-618.936279
3183.439075	552.834595	-213.091751	-612.156616
3183.442417	551.782532	-212.390427	-605.961426
3183.445766	550.613708	-211.864395	-599.181763
3183.449129	549.444763	-211.396835	-592.285217
3183.452557	548.392761	-210.870834	-588.720032
3183.455861	547.983643	-210.637039	-582.583313
3183.459617	546.405579	-209.877274	-577.907654
3183.462946	545.587402	-209.643478	-572.413757
3183.466221	545.236694	-208.299225	-568.147278
3183.469660	542.898865	-207.481003	-564.874390
3183.472986	542.957336	-206.721207	-560.783142
3183.476316	542.840454	-206.370544	-556.984253
3183.479709	541.554626	-206.253647	-554.120422
3183.483039	540.970154	-205.260086	-550.905884
3183.486334	539.859741	-205.084747	-548.217468
3183.489704	539.976624	-204.500290	-545.411987
3183.493012	538.924622	-203.389832	-543.074219
3183.496758	538.398621	-202.863815	-539.859741
3183.500114	537.521912	-202.162476	-538.106384
3183.503394	537.989502	-202.337814	-534.716553
3183.506751	536.469910	-200.642899	-534.073608
3183.510059	536.236084	-200.876694	-531.034485
3183.513448	536.177673	-199.123322	-529.222656
3183.516794	535.710083	-198.655762	-527.235535
3183.520119	534.833435	-198.305084	-525.131531
3183.523405	534.190491	-197.779068	-523.495056
3183.527189	533.722961	-197.194626	-520.806580
3183.530136	534.190491	-196.727066	-518.059631
3183.533878	533.255371	-195.791931	-517.182922
3183.537217	533.080078	-195.441254	-515.487976
3183.540506	532.787842	-195.090591	-512.741089
3183.543866	533.021667	-195.032150	-511.805969
3183.547187	531.735840	-193.921692	-510.111053
3183.550495	531.560486	-193.571014	-508.006989
3183.553788	532.028076	-193.746353	-505.552307
3183.557516	531.969604	-193.337219	-503.565155
3183.560986	531.209778	-193.337219	-502.162445
3183.564318	530.976074	-192.635880	-500.642914
3183.567654	531.034485	-192.460556	-499.357086
3183.571003	531.209778	-192.109879	-498.714203
3183.574318	530.216248	-191.992981	-497.603760
3183.577657	529.982483	-191.408539	-497.136169
3183.580989	530.625366	-191.525421	-496.843964
3183.584316	530.917603	-191.174759	-496.201050
3183.587649	531.268250	-190.765625	-495.616577
3183.590987	529.748657	-190.882523	-496.493286
3183.594322	532.378723	-190.999420	-497.369965
3183.597654	530.566956	-190.531845	-497.369965
3183.601009	531.677368	-190.707184	-499.415527
3183.604753	532.495605	-189.947403	-499.941528
3183.608114	532.261841	-189.830505	-502.045593
3183.611407	532.612488	-189.713623	-504.208099
3183.614750	534.541199	-189.713623	-506.136749
3183.618084	535.184082	-189.012283	-507.714783
3183.621410	536.469910	-188.486267	-510.286377
3183.624742	536.353027	-188.427811	-513.325562
3183.628102	537.463501	-188.077148	-516.072449
3183.631434	538.047913	-187.784927	-519.403809
3183.634767	539.801270	-187.317352	-522.092346
3183.638128	539.742859	-187.492691	-525.423706
3183.641823	541.613098	-187.375809	-528.521362
3183.645173	542.489746	-186.849792	-531.969604
3183.648498	542.957336	-186.499115	-534.541199
3183.651875	544.184692	-186.440689	-537.755676
3183.655188	545.236694	-185.797775	-541.788452
3183.658574	545.996460	-185.739334	-545.236694
3183.661909	546.931580	-185.330215	-548.918762
3183.665239	548.684998	-184.804214	-551.548828
3183.668915	549.970764	-185.037994	-554.120422
3183.672275	550.555237	-184.395081	-558.036255
3183.675702	551.139709	-184.745758	-561.367615
3183.679005	553.009949	-184.395081	-565.166565
3183.682339	554.061951	-184.745758	-567.738159
3183.685704	554.529541	-184.278198	-571.361755
3183.689035	555.756836	-183.985977	-574.342468
3183.692352	556.984253	-183.810638	-578.725891
3183.695724	557.334900	-183.459961	-582.524841
3183.699019	559.789612	-183.927521	-586.732910
3183.702409	559.322021	-183.635300	-590.882568
3183.705718	561.542969	-183.752197	-595.441223
3183.709478	562.127380	-183.693741	-600.116882
3183.712827	564.231445	-183.109299	-605.786072
3183.716174	564.991211	-183.050842	-610.520142
3183.719547	566.043213	-183.109299	-616.130920
3183.722847	567.562805	-183.343079	-622.501465
3183.726179	568.673279	-183.167740	-628.696655
3183.729461	569.842224	-183.226181	-634.248962
3183.732853	571.127991	-182.700180	-641.379333
3183.736171	572.413757	-182.583282	-648.042053
3183.739484	573.991821	-182.291061	-655.698425
3183.742793	575.219177	-181.881943	-662.770325
3183.746537	576.095886	-181.706604	-671.420227
3183.749890	577.790771	-181.355927	-679.135010
3183.753261	580.011719	-180.771484	-688.310913
3183.756564	579.719421	-179.777908	-696.201050
3183.759871	581.589722	-179.310349	-705.435425
3183.763211	582.407959	-178.141434	-714.494446
3183.766515	583.576843	-177.206314	-723.319702
3183.769958	584.687317	-176.797195	-731.794250
3183.773237	586.089966	-176.095856	-742.314453
3183.776996	587.668030	-175.569839	-750.672119
3183.780341	587.375793	-174.634720	-761.250732
3183.783639	588.603149	-173.407364	-771.069519
3183.787026	589.772095	-172.706024	-780.771484
3183.790367	590.005798	-171.712448	-790.473389
3183.793707	589.713623	-171.361786	-799.883118
3183.797067	590.999390	-170.134430	-809.994141
3183.800427	591.408569	-168.790192	-819.754517
3183.803712	591.525391	-168.088837	-828.462891
3183.807101	592.694336	-166.803040	-839.567444
3183.810401	592.226807	-165.575684	-849.094116
3183.813767	592.402100	-164.757462	-858.796021
3183.817518	592.518982	-164.114563	-868.439453
3183.820960	591.759216	-163.004089	-877.907654
3183.824294	592.343689	-161.484512	-889.713562
3183.827630	591.817688	-160.198715	-899.123291
3183.830990	591.934509	-159.438919	-908.883667
3183.834299	591.525391	-158.211578	-920.222107
3183.837631	589.888977	-157.042664	-930.800720
3183.840962	590.765625	-156.165985	-941.145508
3183.844296	589.187622	-155.113968	-951.841064
3183.847628	588.427856	-154.061951	-963.997681
3183.850962	586.674438	-151.899475	-976.329590
3183.854292	585.330200	-150.672119	-987.083557
3183.857621	584.044434	-149.269440	-999.941528
3183.861416	581.940369	-146.931625	-1011.864380
3183.864777	578.725891	-145.412033	-1024.839355
3183.868050	577.323181	-143.132675	-1036.937378
3183.871381	574.576294	-140.736420	-1051.548828
3183.874757	571.770935	-138.749268	-1064.523682
3183.878054	568.147278	-136.411453	-1078.609009
3183.881382	564.699036	-133.781403	-1091.233154
3183.884715	560.490967	-131.092926	-1104.617187
3183.888053	556.575134	-127.995323	-1119.403809
3183.891409	552.016357	-124.663940	-1132.086426
3183.895210	547.516052	-121.390999	-1146.113403
3183.898553	542.431335	-117.475166	-1160.315552
3183.901798	537.463501	-114.552895	-1174.108643
3183.905134	531.735840	-110.111046	-1187.960205
3183.908482	525.248413	-105.902985	-1199.766235
3183.911827	519.228516	-101.811806	-1213.851562
3183.915169	513.442444	-97.779076	-1226.183472
3183.918582	505.318542	-93.103447	-1238.924561
3183.921894	499.707794	-89.246056	-1250.263062
3183.925202	491.993011	-84.979546	-1262.419556
3183.928904	483.985992	-80.303917	-1274.576294
3183.932278	476.212738	-75.569847	-1286.089966
3183.935696	468.556396	-71.244881	-1296.317993
3183.939026	460.315613	-67.095268	-1307.130371
3183.942341	452.717682	-62.244301	-1320.046753
3183.945719	444.126221	-57.393337	-1330.040894
3183.949021	435.417877	-52.776154	-1341.437744
3183.952375	426.125061	-48.334305	-1351.198120
3183.955795	417.241394	-43.717125	-1360.081909
3183.959121	407.890137	-39.216831	-1368.790161
3183.962434	397.954407	-34.424313	-1378.550537
3183.965717	387.317352	-29.982466	-1387.668091
3183.969486	377.673859	-25.189949	-1396.727051
3183.972810	367.212158	-19.871420	-1404.091187
3183.976106	356.049072	-15.371127	-1412.215088
3183.979463	345.002899	-10.637054	-1419.988403
3183.982814	333.372314	-5.318527	-1427.936890
3183.986195	320.923462	0.642899	-1436.119263
3183.989490	308.591461	6.370543	-1442.080688
3183.992864	295.908844	12.448860	-1450.438354
3183.996203	282.758606	17.884277	-1455.698364
3183.999512	268.848633	24.313267	-1461.484497
3184.002840	255.113953	30.683809	-1466.452393
3184.006220	240.151947	36.469902	-1472.355347
3184.009593	225.715942	43.541790	-1475.277588
3184.012966	210.695511	50.496788	-1479.836426
3184.016356	196.025711	57.627117	-1482.291016
3184.020094	180.420807	65.166565	-1482.641724
3184.023441	163.822327	72.413788	-1486.557617
3184.026779	147.282288	79.777908	-1486.674561
3184.030133	131.443604	87.025131	-1488.018677
3184.033474	114.260658	94.330803	-1486.849731
3184.036765	98.012856	102.337814	-1486.323853
3184.040056	81.355927	109.701935	-1485.622437
3184.043358	64.640564	118.351837	-1482.583374
3184.047136	47.399181	125.365280	-1481.472778
3184.050467	31.034481	133.021622	-1476.797241
3184.053782	15.078900	140.385742	-1474.284058
3184.057112	-2.454705	147.632965	-1470.894287
3184.060450	-18.059614	155.230850	-1465.517212
3184.063738	-34.015198	162.302750	-1459.380493
3184.067081	-49.035652	168.965515	-1453.945068
3184.070410	-65.283463	175.978958	-1448.275879
3184.073775	-80.713036	182.466400	-1444.243164
3184.077527	-96.084160	189.070709	-1435.476318
3184.080942	-110.695503	195.441254	-1428.872070
3184.084275	-125.715958	201.519592	-1422.676758
3184.087604	-139.976624	207.247238	-1413.559326
3184.090930	-154.237289	213.033325	-1406.253662
3184.094271	-168.965515	218.877838	-1398.246704
3184.097602	-182.875519	223.378128	-1390.473389
3184.100937	-197.136169	228.579788	-1381.472778
3184.104274	-210.812408	234.424301	-1372.413818
3184.107605	-224.371719	239.041489	-1363.120972
3184.110932	-237.521912	243.015793	-1352.717651
3184.114271	-250.905899	247.808289	-1341.613159
3184.118051	-263.880768	252.250153	-1329.222656
3184.121370	-277.147858	257.042664	-1320.338989
3184.124723	-290.064301	261.484497	-1307.597900
3184.128037	-304.266510	265.400360	-1295.850342
3184.131355	-316.189362	270.075989	-1283.284668
3184.134687	-329.047333	274.926941	-1270.485107
3184.138026	-340.736420	278.316772	-1257.802490
3184.141353	-353.594391	282.524841	-1242.723511
3184.144685	-365.400360	286.732910	-1229.690308
3184.148027	-377.030975	291.583862	-1213.793091
3184.151903	-388.018707	294.213928	-1200.292236
3184.155209	-399.064880	298.246643	-1184.628906
3184.158538	-409.468140	301.928680	-1168.497925
3184.161819	-421.040344	305.026306	-1153.828125
3184.165110	-430.625336	308.591461	-1138.281738
3184.168460	-439.859711	312.390411	-1121.916992
3184.171804	-449.327911	315.488037	-1106.954956
3184.175135	-457.860901	317.942719	-1090.590332
3184.178526	-466.277039	320.105194	-1074.517822
3184.181860	-474.225616	323.261261	-1058.445312
3184.185201	-482.057281	325.599060	-1044.184692
3184.188864	-489.655151	327.527771	-1028.462891
3184.192218	-496.376373	329.222687	-1012.331970
3184.195613	-503.156036	330.800690	-997.954346
3184.198966	-508.649933	333.196960	-982.115723
3184.202298	-514.202209	333.781403	-968.907043
3184.205670	-519.579163	335.359436	-954.646423
3184.208992	-524.254822	336.236115	-939.918152
3184.212361	-529.222656	336.177673	-925.248413
3184.215719	-533.956787	336.820587	-912.741089
3184.219062	-538.047913	336.995911	-899.357117
3184.222466	-542.898865	336.645233	-885.914734
3184.225768	-546.697876	336.586792	-873.641113
3184.229087	-549.912292	337.229675	-859.146667
3184.232455	-553.419067	336.703674	-846.756287
3184.235771	-556.224426	336.236115	-833.372314
3184.239177	-558.620667	335.008759	-821.040344
3184.242528	-561.952087	334.774994	-807.539490
3184.246319	-564.114563	333.722961	-796.376343
3184.249695	-565.926392	333.021606	-783.401550
3184.253035	-568.381042	331.560486	-770.718872
3184.256362	-570.660461	330.742249	-757.860901
3184.259743	-572.413757	329.748688	-745.996460
3184.263041	-575.102295	328.404449	-732.787842
3184.266395	-576.154297	327.410858	-720.338989
3184.269688	-577.557007	325.774414	-708.766785
3184.273061	-577.790771	324.547058	-695.791931
3184.276401	-578.725891	323.728821	-684.161316
3184.279688	-579.719421	322.326141	-671.829346
3184.283021	-580.128601	321.040314	-659.789612
3184.286837	-581.005249	320.280518	-646.464050
3184.290149	-581.063721	319.462311	-635.067200
3184.293525	-581.472839	318.351837	-622.326111
3184.296855	-580.537720	316.540039	-611.455322
3184.300152	-581.122131	315.254242	-599.006409
3184.303480	-580.070129	313.500885	-587.025146
3184.306772	-579.018127	312.098206	-575.862061
3184.310217	-578.842773	310.403290	-565.751038
3184.313530	-578.141479	309.409729	-554.471069
3184.316864	-576.738770	308.006989	-544.418457
3184.320273	-575.745178	307.013428	-533.196960
3184.323587	-574.751587	305.143188	-524.430176
3184.327373	-573.465820	303.682068	-515.312683
3184.330919	-572.589111	301.811829	-505.610748
3184.334250	-570.835754	300.759796	-496.727051
3184.337576	-569.023926	298.071320	-488.778503
3184.340908	-567.679749	297.253052	-480.829895
3184.344246	-566.393921	295.499695	-472.180023
3184.347574	-565.984802	293.980133	-463.880768
3184.350910	-564.523621	291.642303	-456.867310
3184.354306	-562.653381	290.707184	-450.204559
3184.357583	-560.958496	287.901794	-443.191101
3184.360910	-559.731140	286.732910	-436.703674
3184.364243	-557.977783	284.979523	-429.456482
3184.367598	-557.101135	282.524841	-423.202789
3184.370906	-555.464661	281.355927	-416.364716
3184.374240	-554.237244	279.368774	-410.578644
3184.377575	-552.542358	277.381653	-404.675629
3184.381330	-551.607239	275.219177	-398.480408
3184.384658	-550.438354	273.348938	-392.986572
3184.388004	-548.392761	271.303314	-387.609589
3184.391343	-546.990051	270.017517	-381.414368
3184.394685	-545.821167	268.264160	-376.037415
3184.398025	-543.717163	266.160126	-370.660431
3184.401355	-542.548218	265.108124	-364.406769
3184.404745	-540.327332	262.770325	-358.094696
3184.408009	-538.749268	261.601410	-352.600800
3184.411362	-536.645203	259.672699	-347.691406
3184.415093	-534.950317	258.445374	-340.794861
3184.418417	-534.365845	256.808868	-336.177673
3184.421776	-531.502075	254.412628	-330.683807
3184.425108	-530.274658	253.302170	-324.722382
3184.428516	-528.872009	251.899475	-319.871429
3184.431834	-526.358826	250.672119	-314.436005
3184.435122	-524.488586	248.743408	-309.000580
3184.438423	-522.559937	247.808289	-304.850952
3184.441749	-520.338989	246.171829	-299.181763
3184.445074	-519.053162	245.528931	-295.090576
3184.448440	-517.007568	244.418472	-290.005859
3184.452286	-516.130920	242.255997	-286.382233
3184.455260	-514.202209	241.496201	-283.401520
3184.458913	-512.565735	240.444183	-279.485687
3184.462212	-510.520172	239.333725	-275.920502
3184.465550	-509.059052	238.807724	-272.355347
3184.468939	-507.130341	238.281708	-269.257751
3184.472315	-506.370544	236.645248	-266.277039
3184.475633	-505.786072	235.651657	-264.406769
3184.478941	-504.032715	234.658096	-261.016937
3184.482234	-502.805389	234.015198	-259.263580
